time (s)	det(V)
425802.856926	-0.673226	
425802.858924	-0.671741	
425802.860925	-0.666279	
425802.864925	-0.662809	
425802.868925	-0.651130	
425802.870926	-0.634786	
425802.872926	-0.625288	
425802.874927	-0.616272	
425802.876926	-0.607634	
425802.880924	-0.595640	
425802.882926	-0.575865	
425802.884925	-0.563578	
425802.888925	-0.550846	
425802.890924	-0.524855	
425802.892926	-0.512882	
425802.894927	-0.501123	
425802.896927	-0.487554	
425802.898925	-0.475727	
425802.900929	-0.462912	
425802.904933	-0.452788	
425802.906934	-0.430038	
425802.908933	-0.417805	
425802.910935	-0.406839	
425802.912934	-0.395973	
425802.914933	-0.385449	
425802.916933	-0.372643	
425802.918934	-0.360767	
425802.920935	-0.352517	
425802.922937	-0.342401	
425802.926940	-0.332113	
425802.928940	-0.312273	
425802.930940	-0.301971	
425802.932940	-0.292307	
425802.934940	-0.281889	
425802.936940	-0.274630	
425802.940937	-0.265190	
425802.942940	-0.250978	
425802.944941	-0.241526	
425802.948939	-0.233310	
425802.950940	-0.215589	
425802.952939	-0.207122	
425802.954939	-0.199823	
425802.956939	-0.191835	
425802.958939	-0.184661	
425802.962943	-0.178291	
425802.966942	-0.163492	
425802.968944	-0.145807	
425802.970943	-0.137611	
425802.972944	-0.129247	
425802.974944	-0.122711	
425802.978942	-0.113968	
425802.980945	-0.098125	
425802.982948	-0.088943	
425802.986945	-0.078511	
425802.988946	-0.059233	
425802.990944	-0.048506	
425802.992945	-0.040205	
425802.994946	-0.028234	
425802.996945	-0.017985	
425803.000946	-0.008082	
425803.004945	0.013070	
425803.006946	0.036742	
425803.008946	0.047315	
425803.010946	0.058183	
425803.012946	0.069067	
425803.016944	0.079630	
425803.018945	0.101380	
425803.020946	0.111254	
425803.024945	0.121664	
425803.026945	0.142204	
425803.028946	0.152484	
425803.030946	0.161212	
425803.032946	0.171051	
425803.034945	0.181943	
425803.036948	0.188660	
425803.040945	0.197060	
425803.042945	0.211371	
425803.044945	0.221516	
425803.046947	0.229382	
425803.048946	0.237031	
425803.050948	0.245891	
425803.052945	0.253921	
425803.054946	0.260618	
425803.056947	0.267890	
425803.060946	0.272992	
425803.062945	0.289441	
425803.064946	0.297479	
425803.066945	0.306947	
425803.068945	0.315682	
425803.070946	0.322393	
425803.072948	0.330988	
425803.076943	0.339447	
425803.078945	0.354160	
425803.080946	0.362097	
425803.084949	0.370388	
425803.086949	0.388987	
425803.088949	0.398114	
425803.090949	0.406621	
425803.092950	0.413093	
425803.096948	0.422554	
425803.098949	0.438031	
425803.100949	0.448796	
425803.102951	0.456895	
425803.104950	0.466970	
425803.106950	0.477333	
425803.108950	0.485082	
425803.110950	0.493804	
425803.112950	0.502873	
425803.116947	0.511457	
425803.120948	0.527683	
425803.122949	0.543216	
425803.124951	0.550509	
425803.126952	0.557413	
425803.128949	0.563980	
425803.130950	0.569519	
425803.134948	0.575906	
425803.136950	0.584640	
425803.138949	0.588913	
425803.142949	0.592002	
425803.144948	0.598840	
425803.146949	0.601392	
425803.148951	0.602486	
425803.150950	0.604177	
425803.152951	0.604580	
425803.156949	0.602642	
425803.160951	0.599569	
425803.162951	0.596649	
425803.164952	0.593910	
425803.166952	0.592508	
425803.168952	0.588446	
425803.172949	0.584584	
425803.174952	0.573977	
425803.176953	0.568416	
425803.180953	0.564747	
425803.182954	0.556482	
425803.184954	0.552949	
425803.186954	0.546676	
425803.188955	0.541880	
425803.190954	0.537998	
425803.192958	0.530634	
425803.196958	0.526206	
425803.198958	0.517201	
425803.200959	0.515463	
425803.202958	0.512765	
425803.204959	0.508482	
425803.206958	0.505744	
425803.208956	0.501370	
425803.210957	0.498737	
425803.212957	0.495991	
425803.214962	0.491990	
425803.218957	0.491397	
425803.220958	0.487797	
425803.222957	0.487910	
425803.224957	0.486281	
425803.226958	0.483963	
425803.228958	0.482863	
425803.232955	0.481696	
425803.234958	0.479043	
425803.236957	0.476861	
425803.240957	0.475730	
425803.242958	0.472548	
425803.244959	0.471299	
425803.246958	0.469662	
425803.248957	0.466450	
425803.250957	0.465621	
425803.254958	0.461216	
425803.256958	0.454064	
425803.258957	0.449115	
425803.260961	0.445587	
425803.262958	0.442590	
425803.264958	0.437662	
425803.266958	0.433419	
425803.268958	0.429059	
425803.270957	0.422814	
425803.272957	0.417056	
425803.276957	0.410660	
425803.278958	0.397521	
425803.280964	0.392154	
425803.282963	0.385448	
425803.284964	0.380254	
425803.286964	0.371290	
425803.288964	0.363900	
425803.290964	0.357481	
425803.292965	0.346244	
425803.294965	0.337684	
425803.298973	0.330157	
425803.300974	0.314362	
425803.302973	0.305963	
425803.304973	0.297177	
425803.306973	0.290082	
425803.308974	0.279229	
425803.312971	0.271631	
425803.314973	0.254315	
425803.316973	0.247263	
425803.320973	0.240779	
425803.322974	0.227492	
425803.324974	0.220479	
425803.326975	0.212994	
425803.328974	0.207244	
425803.332973	0.201402	
425803.336971	0.190206	
425803.338973	0.180114	
425803.340972	0.176913	
425803.342974	0.171380	
425803.344974	0.168963	
425803.346974	0.165240	
425803.350973	0.161543	
425803.352974	0.156088	
425803.354973	0.152587	
425803.358974	0.152079	
425803.360973	0.147691	
425803.362974	0.147998	
425803.364973	0.145409	
425803.366975	0.145050	
425803.368973	0.145159	
425803.372973	0.141924	
425803.376973	0.139754	
425803.378977	0.139246	
425803.380974	0.138769	
425803.382977	0.137739	
425803.384977	0.137630	
425803.388977	0.136170	
425803.390979	0.132221	
425803.392977	0.130098	
425803.396978	0.129224	
425803.398977	0.127191	
425803.400977	0.127833	
425803.402978	0.124558	
425803.404978	0.122756	
425803.406979	0.121883	
425803.408979	0.116686	
425803.412976	0.113485	
425803.414977	0.108175	
425803.416977	0.107025	
425803.418978	0.104492	
425803.420976	0.101628	
425803.422978	0.097553	
425803.424978	0.094175	
425803.426978	0.089712	
425803.428978	0.085507	
425803.430978	0.081082	
425803.434978	0.077505	
425803.436978	0.070432	
425803.438978	0.067484	
425803.440978	0.063412	
425803.442977	0.058614	
425803.444977	0.055135	
425803.448975	0.051339	
425803.450977	0.042646	
425803.452977	0.038447	
425803.456977	0.034303	
425803.458979	0.028158	
425803.460977	0.024252	
425803.462978	0.021183	
425803.464977	0.017218	
425803.466979	0.015451	
425803.470977	0.011401	
425803.474979	0.004863	
425803.476980	-0.000180	
425803.478984	-0.000580	
425803.480982	-0.003243	
425803.482982	-0.005215	
425803.486981	-0.005536	
425803.488982	-0.011038	
425803.490982	-0.012478	
425803.494981	-0.014129	
425803.496981	-0.014525	
425803.498982	-0.014734	
425803.500982	-0.013942	
425803.502981	-0.015610	
425803.504981	-0.015345	
425803.508981	-0.016367	
425803.512981	-0.018626	
425803.514982	-0.017950	
425803.516983	-0.015594	
425803.518983	-0.016043	
425803.520983	-0.017499	
425803.524980	-0.016191	
425803.526981	-0.020563	
425803.528981	-0.018896	
425803.532982	-0.020088	
425803.534983	-0.017913	
425803.536981	-0.019752	
425803.538982	-0.020899	
425803.540981	-0.020965	
425803.542981	-0.023950	
425803.546981	-0.025286	
425803.550981	-0.029775	
425803.552982	-0.031500	
425803.554982	-0.033760	
425803.556981	-0.035817	
425803.558981	-0.040313	
425803.562979	-0.042861	
425803.564981	-0.050759	
425803.566981	-0.052639	
425803.570981	-0.055883	
425803.572982	-0.061943	
425803.574983	-0.066752	
425803.576982	-0.071244	
425803.578985	-0.075093	
425803.580989	-0.078176	
425803.582987	-0.084386	
425803.586987	-0.087704	
425803.588988	-0.097178	
425803.590988	-0.100012	
425803.592988	-0.105771	
425803.594989	-0.108304	
425803.596988	-0.113888	
425803.598987	-0.118399	
425803.602987	-0.121114	
425803.606986	-0.131774	
425803.608987	-0.140735	
425803.610988	-0.143039	
425803.612987	-0.146048	
425803.614988	-0.150576	
425803.616986	-0.153461	
425803.620988	-0.155776	
425803.622987	-0.163669	
425803.624987	-0.167902	
425803.628988	-0.171157	
425803.630987	-0.174408	
425803.632987	-0.175635	
425803.634988	-0.178161	
425803.636987	-0.180573	
425803.638988	-0.182284	
425803.642990	-0.184978	
425803.646991	-0.189802	
425803.648993	-0.191704	
425803.650991	-0.191102	
425803.652992	-0.193490	
425803.654992	-0.195101	
425803.658990	-0.195492	
425803.660992	-0.201378	
425803.662992	-0.203095	
425803.666991	-0.205717	
425803.668991	-0.206276	
425803.670991	-0.209184	
425803.672992	-0.211022	
425803.674991	-0.214442	
425803.676991	-0.218296	
425803.678992	-0.221801	
425803.682991	-0.225712	
425803.684991	-0.232409	
425803.686992	-0.235875	
425803.688992	-0.240072	
425803.690991	-0.244379	
425803.692992	-0.251526	
425803.694992	-0.255661	
425803.698989	-0.261133	
425803.702989	-0.274798	
425803.704991	-0.289071	
425803.706992	-0.294696	
425803.708994	-0.303235	
425803.710991	-0.311525	
425803.712991	-0.318861	
425803.714991	-0.327538	
425803.716992	-0.335843	
425803.720991	-0.345317	
425803.724991	-0.363434	
425803.726993	-0.381560	
425803.728991	-0.389285	
425803.730992	-0.398092	
425803.732991	-0.406743	
425803.736990	-0.413217	
425803.738992	-0.432014	
425803.740991	-0.439944	
425803.744990	-0.449526	
425803.746992	-0.462377	
425803.748992	-0.469716	
425803.750992	-0.475329	
425803.752991	-0.483355	
425803.754992	-0.490688	
425803.758992	-0.497304	
425803.762991	-0.511730	
425803.764992	-0.520912	
425803.766991	-0.524624	
425803.768993	-0.528440	
425803.770991	-0.533540	
425803.774989	-0.536212	
425803.776992	-0.545089	
425803.778994	-0.547024	
425803.782999	-0.548603	
425803.784997	-0.549297	
425803.786998	-0.550615	
425803.788998	-0.552488	
425803.790997	-0.552484	
425803.792998	-0.554117	
425803.795000	-0.555414	
425803.798998	-0.555941	
425803.800999	-0.555316	
425803.802998	-0.555359	
425803.804998	-0.555600	
425803.806998	-0.554870	
425803.809001	-0.557211	
425803.810997	-0.557841	
425803.812998	-0.557160	
425803.814997	-0.559823	
425803.818996	-0.560208	
425803.820997	-0.562497	
425803.822998	-0.561929	
425803.824998	-0.563322	
425803.826997	-0.564905	
425803.828997	-0.566416	
425803.830997	-0.567181	
425803.832997	-0.568921	
425803.834998	-0.570141	
425803.837004	-0.573726	
425803.841000	-0.574267	
425803.843000	-0.578537	
425803.844999	-0.578218	
425803.847000	-0.578579	
425803.849000	-0.580613	
425803.851001	-0.580350	
425803.854997	-0.581370	
425803.857000	-0.583847	
425803.859000	-0.585652	
425803.862999	-0.585318	
425803.864999	-0.583817	
425803.867000	-0.581460	
425803.868999	-0.580001	
425803.870999	-0.580194	
425803.873000	-0.577167	
425803.877001	-0.576772	
425803.880999	-0.572207	
425803.883000	-0.563261	
425803.885000	-0.557803	
425803.887000	-0.554078	
425803.889000	-0.548633	
425803.892999	-0.541996	
425803.894999	-0.531052	
425803.896999	-0.523617	
425803.901000	-0.516506	
425803.902999	-0.497140	
425803.906997	-0.479802	
425803.909000	-0.472162	
425803.910999	-0.461991	
425803.914999	-0.454911	
425803.916999	-0.436316	
425803.918999	-0.426526	
425803.920999	-0.416526	
425803.923000	-0.407848	
425803.925000	-0.398366	
425803.926998	-0.389733	
425803.928999	-0.378222	
425803.930999	-0.367906	
425803.935000	-0.360437	
425803.938999	-0.341887	
425803.941000	-0.321117	
425803.943000	-0.313235	
425803.944999	-0.301724	
425803.946999	-0.292962	
425803.950999	-0.284525	
425803.953000	-0.268625	
425803.955000	-0.261267	
425803.959001	-0.251666	
425803.961001	-0.233268	
425803.962999	-0.223313	
425803.965000	-0.214640	
425803.966999	-0.205185	
425803.969000	-0.197516	
425803.972999	-0.190637	
425803.976999	-0.175593	
425803.978999	-0.156752	
425803.981000	-0.148069	
425803.983000	-0.138774	
425803.984999	-0.129962	
425803.988997	-0.121523	
425803.990999	-0.104670	
425803.993000	-0.096584	
425803.996998	-0.084743	
425803.998999	-0.062337	
425804.001001	-0.050080	
425804.002999	-0.039738	
425804.004999	-0.031009	
425804.006999	-0.019750	
425804.011008	-0.011790	
425804.015008	0.011794	
425804.017011	0.037202	
425804.019010	0.048522	
425804.021009	0.057497	
425804.023009	0.067446	
425804.027007	0.078494	
425804.029008	0.099305	
425804.031010	0.111814	
425804.035009	0.121919	
425804.037009	0.144263	
425804.039010	0.154466	
425804.041010	0.163020	
425804.043009	0.174118	
425804.045010	0.185017	
425804.047013	0.193789	
425804.051010	0.202889	
425804.053010	0.221975	
425804.055009	0.231582	
425804.057010	0.241385	
425804.059011	0.249160	
425804.061009	0.258987	
425804.063013	0.267886	
425804.067008	0.276279	
425804.069009	0.293760	
425804.071009	0.302612	
425804.073009	0.310160	
425804.075009	0.319150	
425804.077015	0.327968	
425804.079016	0.336847	
425804.081011	0.343165	
425804.083011	0.351786	
425804.087011	0.359950	
425804.091010	0.371511	
425804.093012	0.382941	
425804.095011	0.391324	
425804.097012	0.399762	
425804.099015	0.406513	
425804.101011	0.414020	
425804.103012	0.420542	
425804.105011	0.426907	
425804.107016	0.432809	
425804.111012	0.440392	
425804.113012	0.457156	
425804.115011	0.467312	
425804.117012	0.477354	
425804.119011	0.486357	
425804.121011	0.494294	
425804.123011	0.503875	
425804.125011	0.513185	
425804.127012	0.520045	
425804.129014	0.529100	
425804.133012	0.547238	
425804.135011	0.557448	
425804.137012	0.566736	
425804.139013	0.575924	
425804.141012	0.583648	
425804.143012	0.590953	
425804.147009	0.599276	
425804.151010	0.610992	
425804.153012	0.624296	
425804.155011	0.630897	
425804.157011	0.636660	
425804.159011	0.639348	
425804.161012	0.642893	
425804.163011	0.647360	
425804.165012	0.650096	
425804.169012	0.652197	
425804.173011	0.655942	
425804.175011	0.659921	
425804.177014	0.660231	
425804.179017	0.661444	
425804.181015	0.660728	
425804.185013	0.660498	
425804.187014	0.656842	
425804.189015	0.654921	
425804.193017	0.652812	
425804.195016	0.648846	
425804.197016	0.645489	
425804.199016	0.642136	
425804.201016	0.638783	
425804.203016	0.634949	
425804.207018	0.628315	
425804.211017	0.618791	
425804.213017	0.610730	
425804.215017	0.604915	
425804.217018	0.601548	
425804.219018	0.595819	
425804.223016	0.590561	
425804.225017	0.578642	
425804.227017	0.572543	
425804.231017	0.568051	
425804.233016	0.559330	
425804.235018	0.555360	
425804.237018	0.549514	
425804.239019	0.544439	
425804.241017	0.539800	
425804.245023	0.533467	
425804.249023	0.524381	
425804.251024	0.516321	
425804.253023	0.511853	
425804.255026	0.506577	
425804.257025	0.502325	
425804.261021	0.495903	
425804.263024	0.485589	
425804.265023	0.479450	
425804.269024	0.475412	
425804.271023	0.465339	
425804.273023	0.460757	
425804.275023	0.454346	
425804.277024	0.447796	
425804.279023	0.443152	
425804.281027	0.435195	
425804.285026	0.429042	
425804.287028	0.417661	
425804.289028	0.412327	
425804.291028	0.406770	
425804.293028	0.399209	
425804.295027	0.393205	
425804.297028	0.386278	
425804.301025	0.379034	
425804.305025	0.364384	
425804.307027	0.349879	
425804.309027	0.342098	
425804.311027	0.335226	
425804.313027	0.327241	
425804.315027	0.319304	
425804.319025	0.312705	
425804.321028	0.295403	
425804.323027	0.288428	
425804.327028	0.280514	
425804.329028	0.268037	
425804.331028	0.260881	
425804.333028	0.253883	
425804.335028	0.248374	
425804.337028	0.241051	
425804.339027	0.233152	
425804.343028	0.228482	
425804.345029	0.214684	
425804.347028	0.210874	
425804.349028	0.203622	
425804.351026	0.200896	
425804.353026	0.196140	
425804.355028	0.191323	
425804.357027	0.186522	
425804.359028	0.179462	
425804.361028	0.174448	
425804.365029	0.170641	
425804.367028	0.164638	
425804.369028	0.161538	
425804.371027	0.158080	
425804.373028	0.155750	
425804.375028	0.150925	
425804.377029	0.147948	
425804.379034	0.145906	
425804.383033	0.142247	
425804.385032	0.138127	
425804.387032	0.134718	
425804.389036	0.132987	
425804.391038	0.131545	
425804.393038	0.130273	
425804.395039	0.128371	
425804.397037	0.125818	
425804.399038	0.124393	
425804.401040	0.121648	
425804.405047	0.118634	
425804.407049	0.116796	
425804.409048	0.114617	
425804.411048	0.113332	
425804.413048	0.111863	
425804.415048	0.108935	
425804.417048	0.108638	
425804.419047	0.108152	
425804.421047	0.104028	
425804.423048	0.101798	
425804.427048	0.099203	
425804.429047	0.096341	
425804.431049	0.093938	
425804.433047	0.093430	
425804.435048	0.092139	
425804.437047	0.089643	
425804.441047	0.087173	
425804.443048	0.080383	
425804.445048	0.078508	
425804.449047	0.076656	
425804.451047	0.074492	
425804.453047	0.072307	
425804.455047	0.068744	
425804.457047	0.066840	
425804.459047	0.063796	
425804.463047	0.060673	
425804.465047	0.054985	
425804.467047	0.053922	
425804.469054	0.052468	
425804.471053	0.049549	
425804.473050	0.048423	
425804.475052	0.044810	
425804.477055	0.042490	
425804.479054	0.041550	
425804.483055	0.036964	
425804.487055	0.033738	
425804.489056	0.030340	
425804.491055	0.029451	
425804.493056	0.026864	
425804.495056	0.024429	
425804.499053	0.023796	
425804.501056	0.019634	
425804.503055	0.018494	
425804.507055	0.016467	
425804.509057	0.014178	
425804.511055	0.013598	
425804.513055	0.012715	
425804.515055	0.011724	
425804.517055	0.011357	
425804.521054	0.009622	
425804.525055	0.006356	
425804.527055	0.004809	
425804.529056	0.005542	
425804.531056	0.004024	
425804.533056	0.003081	
425804.537053	0.003976	
425804.539056	-0.000452	
425804.541054	-0.000821	
425804.545057	-0.003289	
425804.547056	-0.002285	
425804.549056	-0.002419	
425804.551055	-0.002815	
425804.553056	-0.003938	
425804.555055	-0.005081	
425804.557055	-0.005864	
425804.561055	-0.008833	
425804.563055	-0.009724	
425804.565057	-0.010876	
425804.567056	-0.010321	
425804.569054	-0.010659	
425804.571055	-0.012455	
425804.573056	-0.012736	
425804.575058	-0.013721	
425804.577057	-0.017472	
425804.581060	-0.018132	
425804.583060	-0.020737	
425804.585060	-0.020092	
425804.587059	-0.021153	
425804.589060	-0.022715	
425804.591060	-0.024576	
425804.593060	-0.026644	
425804.597057	-0.027804	
425804.601058	-0.033149	
425804.603061	-0.034760	
425804.605058	-0.036287	
425804.607061	-0.037046	
425804.609059	-0.039770	
425804.611059	-0.041905	
425804.615058	-0.043103	
425804.617058	-0.048246	
425804.619059	-0.049655	
425804.623060	-0.051706	
425804.625060	-0.054361	
425804.627060	-0.056372	
425804.629059	-0.057427	
425804.631060	-0.060204	
425804.633061	-0.060860	
425804.635065	-0.063323	
425804.639078	-0.066614	
425804.641078	-0.069860	
425804.643078	-0.071142	
425804.645078	-0.072233	
425804.647077	-0.073557	
425804.649078	-0.075787	
425804.651079	-0.076352	
425804.655076	-0.077961	
425804.657078	-0.082342	
425804.659077	-0.086136	
425804.661078	-0.087243	
425804.663081	-0.087581	
425804.665078	-0.089610	
425804.667077	-0.089854	
425804.669077	-0.091161	
425804.671077	-0.094003	
425804.675076	-0.094221	
425804.679077	-0.101272	
425804.681080	-0.105357	
425804.683084	-0.104857	
425804.685083	-0.106271	
425804.687083	-0.109571	
425804.689083	-0.111328	
425804.693082	-0.113661	
425804.695083	-0.120145	
425804.697084	-0.123110	
425804.701083	-0.125365	
425804.703084	-0.128877	
425804.705086	-0.131856	
425804.707083	-0.134185	
425804.709083	-0.138626	
425804.711084	-0.141102	
425804.713087	-0.145290	
425804.717083	-0.150025	
425804.719083	-0.155397	
425804.721084	-0.159356	
425804.723084	-0.162088	
425804.725084	-0.166481	
425804.727083	-0.171938	
425804.729084	-0.175671	
425804.731085	-0.179408	
425804.733084	-0.185476	
425804.737087	-0.189412	
425804.739087	-0.200152	
425804.741088	-0.203255	
425804.743088	-0.209467	
425804.745088	-0.213322	
425804.747086	-0.219861	
425804.749089	-0.224661	
425804.753085	-0.228775	
425804.755088	-0.242848	
425804.757087	-0.248415	
425804.759087	-0.255410	
425804.761089	-0.261057	
425804.763088	-0.265381	
425804.765087	-0.272132	
425804.767087	-0.277106	
425804.769088	-0.283487	
425804.773086	-0.289396	
425804.777085	-0.304703	
425804.779089	-0.317210	
425804.781089	-0.322632	
425804.783094	-0.329009	
425804.785093	-0.334013	
425804.787094	-0.341524	
425804.791092	-0.347961	
425804.793095	-0.362942	
425804.795092	-0.369018	
425804.799093	-0.374990	
425804.801095	-0.384827	
425804.803093	-0.391672	
425804.805093	-0.397663	
425804.807093	-0.403004	
425804.809094	-0.409410	
425804.811094	-0.415436	
425804.815093	-0.421265	
425804.817093	-0.432147	
425804.819095	-0.436172	
